# Energy	Flux
# keV	photon/(s*keV*arcmin**2)
1.005000000000000060e-01	1.230422834855066051e-03
1.015000000000000069e-01	1.219186242354401229e-03
1.024999999999999939e-01	1.208180125875365791e-03
1.034999999999999948e-01	1.197397393848063105e-03
1.044999999999999957e-01	1.186827408917649198e-03
1.054999999999999966e-01	1.176463079514227439e-03
1.064999999999999974e-01	1.166304405637798259e-03
1.074999999999999983e-01	1.156340749933516604e-03
1.084999999999999992e-01	1.146568566616434914e-03
1.095000000000000001e-01	1.136980764116656559e-03
1.105000000000000010e-01	1.127577342434181321e-03
1.115000000000000019e-01	1.118347664214165661e-03
1.125000000000000028e-01	1.109288183671660287e-03
1.135000000000000037e-01	1.100398900806666283e-03
1.145000000000000046e-01	1.091669178264338376e-03
1.155000000000000054e-01	1.083095470259728792e-03
1.165000000000000063e-01	1.074677776792837746e-03
1.174999999999999933e-01	1.066409006293768391e-03
1.184999999999999942e-01	1.058285612977572952e-03
1.194999999999999951e-01	1.050304051059303221e-03
1.204999999999999960e-01	1.042464320538959415e-03
1.214999999999999969e-01	1.034755784061696694e-03
1.224999999999999978e-01	1.027181987412463483e-03
1.234999999999999987e-01	1.019735839021363366e-03
1.244999999999999996e-01	1.012413793103448352e-03
1.255000000000000004e-01	1.005212303873770233e-03
1.265000000000000013e-01	9.981349171172770006e-04
1.275000000000000022e-01	9.911709954791242481e-04
1.285000000000000031e-01	9.843205389593121923e-04
1.295000000000000040e-01	9.775835475578406163e-04
1.305000000000000049e-01	9.709529297048134300e-04
1.315000000000000058e-01	9.644322311851787326e-04
1.325000000000000067e-01	9.580108146440919010e-04
1.335000000000000075e-01	9.516922258665012511e-04
1.345000000000000084e-01	9.454729190674586838e-04
1.355000000000000093e-01	9.393493484620157744e-04
1.365000000000000102e-01	9.333215140501729566e-04
1.375000000000000111e-01	9.273858700469816974e-04
1.385000000000000120e-01	9.215388706674940058e-04
1.395000000000000129e-01	9.157805159117099903e-04
1.405000000000000138e-01	9.101108057796295425e-04
1.414999999999999869e-01	9.045261944863045630e-04
1.424999999999999878e-01	8.990231362467867356e-04
1.434999999999999887e-01	8.936016310610762773e-04
1.444999999999999896e-01	8.882581331442247633e-04
1.454999999999999905e-01	8.829926424962326274e-04
1.464999999999999913e-01	8.778051591170996527e-04
1.474999999999999922e-01	8.726921372218776314e-04
1.484999999999999931e-01	8.676500310256183559e-04
1.494999999999999940e-01	8.626788405283220430e-04
1.504999999999999949e-01	8.577821115149366835e-04
1.514999999999999958e-01	8.529492066306178710e-04
1.524999999999999967e-01	8.481872174452620211e-04
1.534999999999999976e-01	8.434890523889727182e-04
1.544999999999999984e-01	8.388582572466980617e-04
1.554999999999999993e-01	8.342877404485418529e-04
1.565000000000000002e-01	8.297810477794522995e-04
1.575000000000000011e-01	8.253381792394291847e-04
1.585000000000000020e-01	8.209520432585765267e-04
1.595000000000000029e-01	8.166226398368940003e-04
1.605000000000000038e-01	8.123535147593299215e-04
1.615000000000000047e-01	8.081411222409361911e-04
1.625000000000000056e-01	8.039854622817127006e-04
1.635000000000000064e-01	7.998794433117632514e-04
1.645000000000000073e-01	7.958301569009840421e-04
1.655000000000000082e-01	7.918340572644269734e-04
1.665000000000000091e-01	7.878875986171439460e-04
1.675000000000000100e-01	7.839943267440830591e-04
1.685000000000000109e-01	7.801471500753480058e-04
1.695000000000000118e-01	7.763496143958869937e-04
1.705000000000000127e-01	7.726017197056999145e-04
1.715000000000000135e-01	7.688999202198386687e-04
1.724999999999999867e-01	7.652442159383034733e-04
1.734999999999999876e-01	7.616346068610938946e-04
1.744999999999999885e-01	7.580675472032622668e-04
1.754999999999999893e-01	7.545465827497562557e-04
1.764999999999999902e-01	7.510681677156280872e-04
1.774999999999999911e-01	7.476287563159295536e-04
1.784999999999999920e-01	7.442354401205567450e-04
1.794999999999999929e-01	7.409591348284726240e-04
1.804999999999999938e-01	7.375658186330999238e-04
1.814999999999999947e-01	7.343001506958603177e-04
1.824999999999999956e-01	7.310557574683096329e-04
1.834999999999999964e-01	7.278574594450847816e-04
1.844999999999999973e-01	7.246981650562894567e-04
1.854999999999999982e-01	7.215849658718198568e-04
1.864999999999999991e-01	7.184894956120911873e-04
1.875000000000000000e-01	7.154401205566883514e-04
1.885000000000000009e-01	7.124262033507668341e-04
1.895000000000000018e-01	7.094548355642231593e-04
1.905000000000000027e-01	7.064976509174719903e-04
1.915000000000000036e-01	7.035865614750465465e-04
1.925000000000000044e-01	7.007073840971545387e-04
1.935000000000000053e-01	6.978672103536920574e-04
1.945000000000000062e-01	6.950447655349703980e-04
1.955000000000000071e-01	6.922613243506781566e-04
1.965000000000000080e-01	6.895097952309192429e-04
1.975000000000000089e-01	6.867972697455899641e-04
1.985000000000000098e-01	6.840953816151050916e-04
1.995000000000000107e-01	6.814324971190497456e-04
2.005000000000000115e-01	6.787979789025796280e-04
2.015000000000000124e-01	6.761953727506427297e-04
2.025000000000000133e-01	6.736282244481872584e-04
2.034999999999999865e-01	6.710717135005763020e-04
2.044999999999999873e-01	6.685506604024466643e-04
2.054999999999999882e-01	6.660579735839022549e-04
2.064999999999999891e-01	6.635971988298910648e-04
2.074999999999999900e-01	6.611506072156723805e-04
2.084999999999999909e-01	6.587359276659871324e-04
2.094999999999999918e-01	6.563460686109387964e-04
2.104999999999999927e-01	6.539810300505274811e-04
2.114999999999999936e-01	6.516514493395975929e-04
2.124999999999999944e-01	6.493254144136159124e-04
2.134999999999999953e-01	6.470348373371155506e-04
2.144999999999999962e-01	6.447690807552522094e-04
2.154999999999999971e-01	6.425245988830777895e-04
2.164999999999999980e-01	6.403120290754365888e-04
2.174999999999999989e-01	6.381065508376918037e-04
2.184999999999999998e-01	6.359329846644801295e-04
2.195000000000000007e-01	6.337806932009574850e-04
2.205000000000000016e-01	6.316461306621753372e-04
2.215000000000000024e-01	6.295470259728748333e-04
2.225000000000000033e-01	6.274479212835742210e-04
2.235000000000000042e-01	6.253807286588069364e-04
2.245000000000000051e-01	6.233348107437284647e-04
2.255000000000000060e-01	6.213066217533907065e-04
2.265000000000000069e-01	6.193032532576899689e-04
2.275000000000000078e-01	6.173247052566262520e-04
2.285000000000000087e-01	6.153497030405106344e-04
2.295000000000000095e-01	6.133995213190320374e-04
2.305000000000000104e-01	6.114706143072422533e-04
2.315000000000000113e-01	6.095629820051414989e-04
2.325000000000000122e-01	6.076801701976775483e-04
2.335000000000000131e-01	6.057973583902137062e-04
2.344999999999999862e-01	6.039429128623349840e-04
2.354999999999999871e-01	6.021061962591968669e-04
2.364999999999999880e-01	6.002872085807996801e-04
2.374999999999999889e-01	5.984859498271429901e-04
2.384999999999999898e-01	5.967059657831752214e-04
2.394999999999999907e-01	5.949330733091038681e-04
2.404999999999999916e-01	5.931814555447212194e-04
2.414999999999999925e-01	5.914475667050793925e-04
2.424999999999999933e-01	5.897278610052300715e-04
2.434999999999999942e-01	5.880258842301215724e-04
2.444999999999999951e-01	5.863416363797536784e-04
2.454999999999999960e-01	5.846786632390745973e-04
2.464999999999999969e-01	5.830156900983955162e-04
2.474999999999999978e-01	5.813739916674053564e-04
2.484999999999999987e-01	5.797500221611560185e-04
2.494999999999999996e-01	5.781437815796472857e-04
2.505000000000000004e-01	5.765481783529829594e-04
2.515000000000000013e-01	5.749738498360074460e-04
2.525000000000000022e-01	5.734030671039801403e-04
2.535000000000000031e-01	5.718500132966936565e-04
2.545000000000000040e-01	5.703146884141477779e-04
2.555000000000000049e-01	5.687900008864463057e-04
2.565000000000000058e-01	5.672794964985373393e-04
2.575000000000000067e-01	5.657867210353693032e-04
2.585000000000000075e-01	5.643081287119936645e-04
2.595000000000000084e-01	5.628330821735662336e-04
2.605000000000000093e-01	5.613757645598794078e-04
2.615000000000000102e-01	5.599361758709335123e-04
2.625000000000000111e-01	5.585036787518838156e-04
2.635000000000000120e-01	5.570853647726266246e-04
2.645000000000000129e-01	5.556812339331619393e-04
2.655000000000000138e-01	5.542948320184380761e-04
2.665000000000000147e-01	5.529084301037142128e-04
2.675000000000000155e-01	5.515397571137310630e-04
2.685000000000000164e-01	5.501852672635405275e-04
2.695000000000000173e-01	5.488414147681943984e-04
2.705000000000000182e-01	5.475081996276925673e-04
2.715000000000000191e-01	5.461856218420353595e-04
2.725000000000000200e-01	5.448772271961705490e-04
2.735000000000000209e-01	5.435830156900984611e-04
2.745000000000000218e-01	5.422923499689743642e-04
2.755000000000000226e-01	5.410158673876429899e-04
2.765000000000000235e-01	5.397500221611559136e-04
2.775000000000000244e-01	5.384948142895133521e-04
2.785000000000000253e-01	5.372502437727153055e-04
2.795000000000000262e-01	5.360198563957096563e-04
2.805000000000000271e-01	5.347965605886003141e-04
2.814999999999999725e-01	5.335909937062317939e-04
2.824999999999999734e-01	5.323818810389150660e-04
2.834999999999999742e-01	5.311904972963390516e-04
2.844999999999999751e-01	5.300097509086074436e-04
2.854999999999999760e-01	5.288360960907721427e-04
2.864999999999999769e-01	5.276730786277812483e-04
2.874999999999999778e-01	5.265206985196348687e-04
2.884999999999999787e-01	5.253789557663327871e-04
2.894999999999999796e-01	5.242513961528234281e-04
2.904999999999999805e-01	5.231238365393139607e-04
2.914999999999999813e-01	5.220069142806488998e-04
2.924999999999999822e-01	5.209041751617765614e-04
2.934999999999999831e-01	5.198085276128003134e-04
2.944999999999999840e-01	5.187199716337204808e-04
2.954999999999999849e-01	5.176420530094850547e-04
2.964999999999999858e-01	5.165712259551459356e-04
2.974999999999999867e-01	5.155110362556511146e-04
2.984999999999999876e-01	5.144650296959490162e-04
2.994999999999999885e-01	5.134154773512987100e-04
3.004999999999999893e-01	5.123836539313891174e-04
3.014999999999999902e-01	5.113553762964277325e-04
3.024999999999999911e-01	5.103377360163106457e-04
3.034999999999999920e-01	5.093271873060898659e-04
3.044999999999999929e-01	5.083272759507136010e-04
3.054999999999999938e-01	5.073309103802855439e-04
3.064999999999999947e-01	5.063451821647017848e-04
3.074999999999999956e-01	5.053700913039624321e-04
3.084999999999999964e-01	5.044056377980675942e-04
3.094999999999999973e-01	5.034376385072245486e-04
3.104999999999999982e-01	5.024838223561741172e-04
3.114999999999999991e-01	5.015370977750199929e-04
3.125000000000000000e-01	5.005974647637621757e-04
3.135000000000000009e-01	4.996649233224004488e-04
3.145000000000000018e-01	4.987394734509352457e-04
3.155000000000000027e-01	4.978246609343143407e-04
3.165000000000000036e-01	4.969133942026416435e-04
3.175000000000000044e-01	4.960092190408652534e-04
3.185000000000000053e-01	4.951192270188813690e-04
3.195000000000000062e-01	4.942256892119493853e-04
3.205000000000000071e-01	4.933463345448099073e-04
3.215000000000000080e-01	4.924705256626186372e-04
3.225000000000000089e-01	4.916018083503235657e-04
3.235000000000000098e-01	4.907401826079249097e-04
3.245000000000000107e-01	4.898891942203705517e-04
3.255000000000000115e-01	4.890382058328161937e-04
3.265000000000000124e-01	4.881978548001064048e-04
3.275000000000000133e-01	4.873645953372928146e-04
3.285000000000000142e-01	4.865419732293236850e-04
3.295000000000000151e-01	4.857158053364063477e-04
3.305000000000000160e-01	4.849002747983334710e-04
3.315000000000000169e-01	4.840918358301569556e-04
3.325000000000000178e-01	4.832869426469285396e-04
3.335000000000000187e-01	4.824891410335963764e-04
3.345000000000000195e-01	4.817019767751086197e-04
3.355000000000000204e-01	4.809148125166209172e-04
3.365000000000000213e-01	4.801382856129776211e-04
3.375000000000000222e-01	4.793653044942824785e-04
3.385000000000000231e-01	4.785994149454836431e-04
3.395000000000000240e-01	4.778370711816328528e-04
3.405000000000000249e-01	4.770889105575747309e-04
3.415000000000000258e-01	4.763336583636203561e-04
3.425000000000000266e-01	4.755890435245102793e-04
3.435000000000000275e-01	4.748515202552966181e-04
3.444999999999999729e-01	4.741210885559791013e-04
3.454999999999999738e-01	4.733942026416097923e-04
3.464999999999999747e-01	4.726708625121886910e-04
3.474999999999999756e-01	4.719546139526637884e-04
3.484999999999999765e-01	4.712454569630351929e-04
3.494999999999999774e-01	4.705398457583547509e-04
3.504999999999999782e-01	4.698413261235706703e-04
3.514999999999999791e-01	4.691463522737346890e-04
3.524999999999999800e-01	4.684620157787431141e-04
3.534999999999999809e-01	4.677741334988033857e-04
3.544999999999999818e-01	4.670933427887598560e-04
3.554999999999999827e-01	4.664196436486127417e-04
3.564999999999999836e-01	4.657494902934137268e-04
3.574999999999999845e-01	4.650864285081110190e-04
3.584999999999999853e-01	4.644269125077564648e-04
3.594999999999999862e-01	4.637744880772981092e-04
3.604999999999999871e-01	4.631256094317880156e-04
3.614999999999999880e-01	4.624802765712259672e-04
3.624999999999999889e-01	4.618420352805602800e-04
3.634999999999999898e-01	4.612073397748426922e-04
3.644999999999999907e-01	4.605797358390214115e-04
3.654999999999999916e-01	4.599485861182519772e-04
3.664999999999999925e-01	4.593280737523269494e-04
3.674999999999999933e-01	4.587146529562982828e-04
3.684999999999999942e-01	4.581012321602695621e-04
3.694999999999999951e-01	4.574949029341370942e-04
3.704999999999999960e-01	4.568921194929527799e-04
3.714999999999999969e-01	4.562928818367166192e-04
3.724999999999999978e-01	4.556971899654286120e-04
3.734999999999999987e-01	4.551085896640369118e-04
3.744999999999999996e-01	4.545235351475933111e-04
3.755000000000000004e-01	4.539420264160979181e-04
3.765000000000000013e-01	4.533676092544987779e-04
3.775000000000000022e-01	4.527931920928996378e-04
3.785000000000000031e-01	4.522294122861448499e-04
3.795000000000000040e-01	4.516620866944420169e-04
3.805000000000000049e-01	4.511018526726354367e-04
3.815000000000000058e-01	4.505451644357770643e-04
3.825000000000000067e-01	4.499920219838666829e-04
3.835000000000000075e-01	4.494459711018527169e-04
3.845000000000000084e-01	4.488999202198386967e-04
3.855000000000000093e-01	4.483609609077209837e-04
3.865000000000000102e-01	4.478255473805513700e-04
3.875000000000000111e-01	4.472936796383300182e-04
3.885000000000000120e-01	4.467653576810566574e-04
3.895000000000000129e-01	4.462405815087315043e-04
3.905000000000000138e-01	4.457193511213545590e-04
3.915000000000000147e-01	4.452016665189256588e-04
3.925000000000000155e-01	4.446910734863930657e-04
3.935000000000000164e-01	4.441840262388086261e-04
3.945000000000000173e-01	4.436734332062760330e-04
3.955000000000000182e-01	4.431734775285879006e-04
3.965000000000000191e-01	4.426735218508997681e-04
3.975000000000000200e-01	4.421771119581597350e-04
3.985000000000000209e-01	4.416877936353160632e-04
3.995000000000000218e-01	4.411984753124723372e-04
4.005000000000000226e-01	4.407162485595249183e-04
4.015000000000000235e-01	4.402340218065774993e-04
4.025000000000000244e-01	4.397553408385781256e-04
4.035000000000000253e-01	4.392837514404751673e-04
4.045000000000000262e-01	4.388121620423722090e-04
4.055000000000000271e-01	4.383441184292172959e-04
4.064999999999999725e-01	4.378796206010105905e-04
4.074999999999999734e-01	4.374222143427001380e-04
4.084999999999999742e-01	4.369683538693378390e-04
4.094999999999999751e-01	4.365109476110273865e-04
4.104999999999999760e-01	4.360606329226132953e-04
4.114999999999999769e-01	4.356103182341991499e-04
4.124999999999999778e-01	4.351670951156812574e-04
4.134999999999999787e-01	4.347274177821115726e-04
4.144999999999999796e-01	4.342877404485418337e-04
4.154999999999999805e-01	4.338551546848684018e-04
4.164999999999999813e-01	4.334225689211949699e-04
4.174999999999999822e-01	4.329935289424696916e-04
4.184999999999999831e-01	4.325680347486925668e-04
4.194999999999999840e-01	4.321460863398635414e-04
4.204999999999999849e-01	4.317276837159826695e-04
4.214999999999999858e-01	4.313092810921017976e-04
4.224999999999999867e-01	4.308944242531690793e-04
4.234999999999999876e-01	4.304866589841326681e-04
4.244999999999999885e-01	4.300788937150962026e-04
4.254999999999999893e-01	4.296782200159560442e-04
4.264999999999999902e-01	4.292704547469196330e-04
4.274999999999999911e-01	4.288733268327276282e-04
4.284999999999999920e-01	4.284761989185356234e-04
4.294999999999999929e-01	4.280826167892917721e-04
4.304999999999999938e-01	4.276925804449960744e-04
4.314999999999999947e-01	4.273060898856484218e-04
4.324999999999999956e-01	4.269195993263008777e-04
4.334999999999999964e-01	4.265366545519014329e-04
4.344999999999999973e-01	4.261572555624501958e-04
4.354999999999999982e-01	4.257814023579470039e-04
4.364999999999999991e-01	4.254055491534438661e-04
4.375000000000000000e-01	4.250367875188370355e-04
4.385000000000000009e-01	4.246680258842301507e-04
4.395000000000000018e-01	4.242992642496233200e-04
4.405000000000000027e-01	4.239375941849127423e-04
4.415000000000000036e-01	4.235759241202021103e-04
4.425000000000000044e-01	4.232177998404397404e-04
4.435000000000000053e-01	4.228667671305735691e-04
4.445000000000000062e-01	4.225086428508111449e-04
4.455000000000000071e-01	4.221576101409449736e-04
4.465000000000000080e-01	4.218101232160269558e-04
4.475000000000000089e-01	4.214626362911089922e-04
4.485000000000000098e-01	4.211186951511391280e-04
4.495000000000000107e-01	4.207782997961174174e-04
4.505000000000000115e-01	4.204414502260438061e-04
4.515000000000000124e-01	4.201046006559702489e-04
4.525000000000000133e-01	4.197712968708448454e-04
4.535000000000000142e-01	4.194379930857193876e-04
4.545000000000000151e-01	4.191117808704902369e-04
4.555000000000000160e-01	4.187820228703129869e-04
4.565000000000000169e-01	4.184593564400319356e-04
4.575000000000000178e-01	4.181366900097509384e-04
4.585000000000000187e-01	4.178175693644180407e-04
4.595000000000000195e-01	4.174984487190852513e-04
4.605000000000000204e-01	4.171864196436486606e-04
4.615000000000000213e-01	4.168708447832639706e-04
4.625000000000000222e-01	4.165623614927754792e-04
4.635000000000000231e-01	4.162574239872351956e-04
4.645000000000000240e-01	4.159453949117986049e-04
4.655000000000000249e-01	4.156440031912065291e-04
4.665000000000000258e-01	4.153390656856661913e-04
4.675000000000000266e-01	4.150412197500222148e-04
4.685000000000000275e-01	4.147433738143781841e-04
4.694999999999999729e-01	4.144490736636823611e-04
4.704999999999999738e-01	4.141547735129864839e-04
4.714999999999999747e-01	4.138640191472387603e-04
4.724999999999999756e-01	4.135732647814910367e-04
4.734999999999999765e-01	4.132860562006914667e-04
4.744999999999999774e-01	4.130023934048399959e-04
4.754999999999999782e-01	4.127187306089885794e-04
4.764999999999999791e-01	4.124386135980853164e-04
4.774999999999999800e-01	4.121584965871819993e-04
4.784999999999999809e-01	4.118819253612268898e-04
4.794999999999999818e-01	4.116053541352717262e-04
4.804999999999999827e-01	4.113323286942647161e-04
4.814999999999999836e-01	4.110628490382058596e-04
4.824999999999999845e-01	4.107933693821470031e-04
4.834999999999999853e-01	4.105274355110363001e-04
4.844999999999999862e-01	4.102650474248736964e-04
4.854999999999999871e-01	4.099991135537629935e-04
4.864999999999999880e-01	4.097367254676004440e-04
4.874999999999999889e-01	4.094778831663859939e-04
4.884999999999999898e-01	4.092190408651715438e-04
4.894999999999999907e-01	4.089637443489052473e-04
4.904999999999999916e-01	4.087084478326389507e-04
4.914999999999999925e-01	4.084566971013208619e-04
4.924999999999999933e-01	4.082049463700027189e-04
4.934999999999999942e-01	4.079567414236326753e-04
4.944999999999999951e-01	4.077120822622108394e-04
4.954999999999999960e-01	4.074674231007890035e-04
4.964999999999999969e-01	4.072227639393671134e-04
4.974999999999999978e-01	4.069816505628934310e-04
4.984999999999999987e-01	4.067405371864196402e-04
